Potential,Flux
10.0,-0.0007078460040332857
9.9,-0.0004425571020760799
9.8,-0.0003935340942007315
9.7,-0.00038574365923693676
9.6,-0.00039457770384387914
9.5,-0.00041297298913889335
9.4,-0.00043823056294911567
9.3,-0.00046920245466708366
9.2,-0.000505415709284307
9.1,-0.0005467537533832001
9.0,-0.000593293192352462
8.9,-0.0006452571810200425
8.8,-0.0007029654636170335
8.7,-0.000766812169317177
8.6,-0.0008372724735750126
8.5,-0.0009148815038884095
8.4,-0.0010002387806906654
8.3,-0.0010940170991347031
8.2,-0.0011969514268628245
8.1,-0.0013098500062369567
8.0,-0.0014335976850077259
7.9,-0.0015691614674295806
7.8,-0.0017175905142607917
7.699999999999999,-0.0018800239143246245
7.6,-0.00205770289696261
7.5,-0.002251968611588495
7.4,-0.00246427322991849
7.3,-0.0026961888277554635
7.199999999999999,-0.0029494051645428954
7.1,-0.003225754108271417
7.0,-0.0035271985332485656
6.9,-0.0038558556347823014
6.8,-0.004213998039404032
6.699999999999999,-0.004604052694645588
6.6,-0.005028629734837864
6.5,-0.00549050915843452
6.4,-0.005992661922249454
6.3,-0.00653824328011865
6.199999999999999,-0.007130618318029747
6.1,-0.00777334085988457
6.0,-0.008470182333297771
5.8999999999999995,-0.009225118446920533
5.8,-0.010042343623339889
5.7,-0.010926252125287306
5.6,-0.011881465811214298
5.5,-0.012912795277486566
5.3999999999999995,-0.014025273165074736
5.3,-0.015224113081302448
5.199999999999999,-0.016514718481630553
5.1,-0.017902671567426864
5.0,-0.019393708861059622
4.8999999999999995,-0.02099371232411329
4.8,-0.022708690483597138
4.699999999999999,-0.024544756227484754
4.6,-0.026508092387800275
4.5,-0.02860494952017234
4.3999999999999995,-0.030841591502905885
4.3,-0.03322428554497492
4.199999999999999,-0.03575926554866271
4.1,-0.038452696582425006
4.0,-0.04131064157419928
3.8999999999999995,-0.044339036886498207
3.8,-0.047543651238157736
3.6999999999999993,-0.050930064610099635
3.5999999999999996,-0.0545036105137342
3.5,-0.05826938709319052
3.3999999999999995,-0.06223218163015076
3.3,-0.0663964783154114
3.1999999999999993,-0.07076643160353058
3.0999999999999996,-0.07534581625279202
3.0,-0.08013804730921947
2.8999999999999995,-0.08514612237497943
2.8,-0.0903726571355179
2.6999999999999993,-0.09581982873818617
2.5999999999999996,-0.10148938911491712
2.5,-0.10738268385601657
2.3999999999999995,-0.11350059558878911
2.3,-0.11984358616601298
2.1999999999999993,-0.12641172220106967
2.0999999999999996,-0.13320462399768473
2.0,-0.1402215032975107
1.9000000000000004,-0.14746119436637173
1.799999999999999,-0.1549221240182419
1.6999999999999993,-0.16260235824461233
1.5999999999999996,-0.17049960887582927
1.5,-0.17861125356510854
1.4000000000000004,-0.18693431580452113
1.299999999999999,-0.19546557594729563
1.1999999999999993,-0.2042014524139546
1.0999999999999996,-0.21313813047818542
1.0,-0.2222715533850561
0.9000000000000004,-0.231597407918116
0.7999999999999989,-0.2411111765798779
0.6999999999999993,-0.25080810539535037
0.5999999999999996,-0.26068329606054874
0.5,-0.2707316604233512
0.3999999999999986,-0.2809479526799663
0.29999999999999893,-0.2913267604931491
0.1999999999999993,-0.3018625682749132
0.09999999999999964,-0.3125497449740777
0.0,-0.3233825129900225
-0.10000000000000142,-0.3343550358803071
-0.20000000000000107,-0.34546134397572814
-0.3000000000000007,-0.35669541320615394
-0.40000000000000036,-0.3680511184711577
-0.5,-0.3795223169067441
-0.6000000000000014,-0.3911026791314498
-0.7000000000000011,-0.40278597679410666
-0.8000000000000007,-0.4145658361043303
-0.9000000000000004,-0.42643577669032595
-1.0,-0.4383893437154285
-1.1000000000000014,-0.4504200246113754
-1.200000000000001,-0.46252122132273144
-1.3000000000000007,-0.4746862958260323
-1.4000000000000004,-0.4869085468151013
-1.5,-0.49918127964510006
-1.6000000000000014,-0.5114976531217508
-1.700000000000001,-0.523850792744085
-1.8000000000000007,-0.5362338295622493
-1.9000000000000004,-0.5486397525178432
-2.0,-0.5610615072537684
-2.1000000000000014,-0.5734919228395086
-2.200000000000001,-0.585923838336555
-2.3000000000000007,-0.5983499085093769
-2.4000000000000004,-0.6107628214291339
-2.5,-0.623154955414762
-2.6000000000000014,-0.6355188575390969
-2.700000000000001,-0.6478467384773978
-2.8000000000000007,-0.6601307678266721
-2.9000000000000004,-0.6723630330274233
-3.0,-0.6845353994755499
-3.1000000000000014,-0.6966396381979933
-3.200000000000001,-0.7086673492473494
-3.3000000000000007,-0.7206099683632061
-3.4000000000000004,-0.732458774743705
-3.5,-0.7442048588490735
-3.6000000000000014,-0.755839085764265
-3.700000000000001,-0.7673521340567646
-3.8000000000000007,-0.7787344868948054
-3.9000000000000004,-0.7899763215801769
-4.0,-0.801067728817273
-4.100000000000001,-0.8119984273857739
-4.200000000000001,-0.8227579589847878
-4.300000000000001,-0.8333354412082272
-4.4,-0.8437199833233322
-4.5,-0.8539001278284886
-4.600000000000001,-0.8638643506087007
-4.700000000000001,-0.8736006484877379
-4.800000000000001,-0.8830968534212502
-4.9,-0.8923404182237249
-5.0,-0.9013185070516627
-5.100000000000001,-0.9100179459986535
-5.200000000000001,-0.9184253263461173
-5.300000000000001,-0.9265267852942571
-5.4,-0.9343083257062901
-5.5,-0.9417556917634684
-5.600000000000001,-0.9488542057622951
-5.700000000000001,-0.9555890734258554
-5.800000000000001,-0.9619453839038172
-5.9,-0.967907920479405
-6.0,-0.9734614730971813
-6.100000000000001,-0.9785907001402805
-6.199999999999999,-0.9832805325515892
-6.300000000000001,-0.9875157047645189
-6.400000000000002,-0.9912814355472754
-6.5,-0.9945632292729378
-6.600000000000001,-0.9973470552204766
-6.699999999999999,-0.9996194619277254
-6.800000000000001,-1.0013679863085656
-6.900000000000002,-1.0025810595615248
-7.0,-1.003248345232688
-7.100000000000001,-1.0033609953996603
-7.199999999999999,-1.0029118546750482
-7.300000000000001,-1.001895626184801
-7.400000000000002,-1.0003094569333015
-7.5,-0.9981527523961198
-7.600000000000001,-0.995427806016469
-7.699999999999999,-0.9921399327095237
-7.800000000000001,-0.9882976251263109
-7.900000000000002,-0.9839128124744523
-8.0,-0.9790010127574966
-8.100000000000001,-0.9735812976641167
-8.2,-0.9676765255761666
-8.3,-0.9613128612584454
-8.400000000000002,-0.9545200500837847
-8.5,-0.947330804912383
-8.600000000000001,-0.9397804313915348
-8.7,-0.9319066364421591
-8.8,-0.9237486565949471
-8.900000000000002,-0.9153468901595962
-9.0,-0.9067420574104812
-9.100000000000001,-0.8979747195825283
-9.200000000000003,-0.8890845245440593
-9.3,-0.8801097037269834
-9.400000000000002,-0.871086527076681
-9.5,-0.8620487963739709
-9.600000000000001,-0.8530277015306176
-9.700000000000003,-0.8440513470098221
-9.8,-0.835144813061961
-9.900000000000002,-0.8263300568106535
-10.0,-0.817625917214071
-9.9,-0.7953184309739125
-9.8,-0.7779604054361511
-9.7,-0.7630401371860884
-9.6,-0.7496580844632006
-9.5,-0.7373713940481141
-9.4,-0.7259212349633448
-9.3,-0.7151392142010216
-9.2,-0.7049073937406836
-9.1,-0.6951387399728448
-9.0,-0.685766341004812
-8.9,-0.676737135774097
-8.8,-0.6680079150250817
-8.7,-0.6595428107478152
-8.6,-0.6513114407177834
-8.5,-0.6432878228018746
-8.4,-0.6354492640414655
-8.3,-0.6277758278494527
-8.2,-0.6202498418345082
-8.1,-0.6128554006640252
-8.0,-0.6055781729547016
-7.9,-0.5984050607116265
-7.8,-0.5913240803262498
-7.699999999999999,-0.5843241848019209
-7.6,-0.5773950794568661
-7.5,-0.5705271818173818
-7.4,-0.5637115310652696
-7.3,-0.5569396358678924
-7.199999999999999,-0.5502034969295799
-7.1,-0.5434955110267259
-7.0,-0.5368084274315343
-6.9,-0.5301353181441648
-6.8,-0.5234695437533743
-6.699999999999999,-0.5168047158277123
-6.6,-0.510134663539441
-6.5,-0.5034534483056019
-6.4,-0.4967553129259228
-6.3,-0.49003467922359434
-6.199999999999999,-0.4832861250775311
-6.1,-0.47650438518564986
-6.0,-0.46968435932215336
-5.8999999999999995,-0.4628210520385423
-5.8,-0.45590962713393246
-5.7,-0.44894534867445657
-5.6,-0.44192365086792584
-5.5,-0.43484006506666617
-5.3999999999999995,-0.4276902242084102
-5.3,-0.4204699170784476
-5.199999999999999,-0.41317507429305955
-5.1,-0.40580170432291673
-5.0,-0.39834598467014537
-4.8999999999999995,-0.39080420316528475
-4.8,-0.38317282305411204
-4.699999999999999,-0.3754483901552419
-4.6,-0.3676276411068713
-4.5,-0.3597074652028631
-4.3999999999999995,-0.3516848773310599
-4.3,-0.3435570601617588
-4.199999999999999,-0.3353213756662754
-4.1,-0.32697534582681875
-4.0,-0.31851669288207596
-3.8999999999999995,-0.3099432538400393
-3.8,-0.30125313771334206
-3.6999999999999993,-0.29244459548438684
-3.5999999999999996,-0.28351604119958296
-3.5,-0.274466160632425
-3.3999999999999995,-0.2652937650116094
-3.3,-0.2559979014882252
-3.1999999999999993,-0.24657785285819855
-3.0999999999999996,-0.2370330318135494
-3.0,-0.22736314081450715
-2.8999999999999995,-0.21756804968742216
-2.8,-0.20764783947857524
-2.6999999999999993,-0.19760280578484668
-2.5999999999999996,-0.18743346624772173
-2.5,-0.17714052197304042
-2.3999999999999995,-0.16672491748304097
-2.3,-0.1561877635558595
-2.1999999999999993,-0.14553043936604837
-2.0999999999999996,-0.13475444843313866
-2.0,-0.12386154074617295
-1.9000000000000004,-0.11285367307323213
-1.799999999999999,-0.10173297287918714
-1.6999999999999993,-0.0905017691343879
-1.5999999999999996,-0.07916258593088088
-1.5,-0.067718135821071
-1.4000000000000004,-0.05617128817636541
-1.299999999999999,-0.04452513580055495
-1.1999999999999993,-0.0327829169366467
-1.0999999999999996,-0.020948056067560117
-1.0,-0.009024135327884153
-0.9000000000000004,0.002985057756532683
-0.7999999999999989,0.015075607429082538
-0.6999999999999993,0.02724342251791967
-0.5999999999999996,0.03948424531774464
-0.5,0.05179365325513885
-0.3999999999999986,0.06416708164813656
-0.29999999999999893,0.07659977374618876
-0.1999999999999993,0.08908684068220651
-0.09999999999999964,0.10162325481122281
0.0,0.11420376921922326
0.10000000000000142,0.12682302819033708
0.20000000000000107,0.13947549892812106
0.3000000000000007,0.15215549153957397
0.40000000000000036,0.16485713960623372
0.5,0.1775744162824111
0.6000000000000014,0.19030111042539488
0.7000000000000011,0.2030308537959158
0.8000000000000007,0.21575707997989468
0.9000000000000004,0.2284730638013599
1.0,0.24117185304373123
1.1000000000000014,0.25384628676849985
1.200000000000001,0.26648907414106304
1.3000000000000007,0.27909262845238203
1.4000000000000004,0.2916491537163779
1.5,0.3041506280165862
1.6000000000000014,0.31658882626572904
1.700000000000001,0.32895520418740887
1.8000000000000007,0.3412409887992851
1.9000000000000004,0.35343708515434
2.0,0.365534177371174
2.1000000000000014,0.37752258208456624
2.200000000000001,0.3893923095077412
2.3000000000000007,0.40113301902344745
2.4000000000000004,0.4127340058612816
2.5,0.42418424439638613
2.6000000000000014,0.43547228489870804
2.700000000000001,0.44658622133653125
2.8000000000000007,0.45751384902814607
2.9000000000000004,0.46824237931453183
3.0,0.4787585905496883
3.1000000000000014,0.4890488314313046
3.200000000000001,0.49909892663180244
3.3000000000000007,0.5088941368303068
3.4000000000000004,0.5184192264362508
3.5,0.5276584313929078
3.6000000000000014,0.5365953825720027
3.700000000000001,0.5452131668359783
3.8000000000000007,0.5534943192664343
3.9000000000000004,0.5614207365667312
4.0,0.568973848036336
4.100000000000001,0.5761345434063259
4.200000000000001,0.5828831217691288
4.300000000000001,0.5891994736550998
4.4,0.5950631076778734
4.5,0.6004531472036945
4.600000000000001,0.6053485535062464
4.700000000000001,0.6097281646244568
4.800000000000001,0.6135708441323828
4.9,0.6168557120656004
5.0,0.6195623947213846
5.100000000000001,0.6216712489237608
5.200000000000001,0.6231636207054692
5.300000000000001,0.6240223682230095
5.4,0.624232169288419
5.5,0.6237799121677767
5.600000000000001,0.6226553739274721
5.700000000000001,0.6208516567518529
5.800000000000001,0.6183657763614292
5.9,0.6151992193448308
6.0,0.6113585471201333
6.100000000000001,0.6068558700000892
6.199999999999999,0.6017092890608922
6.300000000000001,0.5959431947921701
6.400000000000002,0.5895884069850865
6.5,0.582682094796283
6.600000000000001,0.5752675436010435
6.699999999999999,0.5673934644345735
6.800000000000001,0.5591133378501922
6.900000000000002,0.5504842293113654
7.0,0.5415656645357814
7.100000000000001,0.532418235055232
7.199999999999999,0.5231021771301414
7.300000000000001,0.5136759928525692
7.400000000000002,0.5041952189088761
7.5,0.4947114062847646
7.600000000000001,0.48527122209485185
7.699999999999999,0.4759159921707834
7.800000000000001,0.4666813491205346
7.900000000000002,0.457597253422648
8.0,0.44868812443255024
8.100000000000001,0.43997321563793435
8.2,0.43146705985819267
8.3,0.4231799821674542
8.400000000000002,0.41511865722654306
8.5,0.4072866555127064
8.600000000000001,0.3996849695653282
8.7,0.39231246695692334
8.8,0.38516635436636193
8.900000000000002,0.3782424995435463
9.0,0.3715357821398868
9.100000000000001,0.3650403579413819
9.200000000000003,0.35874984760653206
9.3,0.35265756759272904
9.400000000000002,0.3467566234149899
9.5,0.34104004731361215
9.600000000000001,0.33550089151290763
9.700000000000003,0.3301322903936921
9.8,0.32492750712265206
9.900000000000002,0.3198799869430502
