Potential,Flux
10.0,-0.0004471334413835848
9.9,-0.00035093927763796273
9.8,-0.0003221289901489399
9.7,-0.000315769632663887
9.6,-0.0003203182163957763
9.5,-0.00033153590983658887
9.4,-0.00034754088495958513
9.3,-0.00036741942821549856
9.2,-0.0003907008050418881
9.1,-0.00041716630150290257
9.0,-0.0004467237690874981
8.9,-0.00047938319980289634
8.8,-0.0005152012150233531
8.7,-0.0005542855063822572
8.6,-0.0005967659699734895
8.5,-0.0006428113596967933
8.4,-0.0006926026419051823
8.3,-0.000746342987412163
8.2,-0.0008042522203766111
8.1,-0.0008665723694178951
8.0,-0.0009335532347165554
7.9,-0.00100546793113665
7.8,-0.001082599565549458
7.699999999999999,-0.0011652478981716285
7.6,-0.001253728232342155
7.5,-0.001348373634968425
7.4,-0.0014495304956341215
7.3,-0.0015575596368222477
7.199999999999999,-0.0016728440854762994
7.1,-0.0017957779707700183
7.0,-0.0019267731854455405
6.9,-0.002066259385813396
6.8,-0.002214685101975533
6.699999999999999,-0.0023725132969332208
6.6,-0.0025402313585942693
6.5,-0.002718342217988834
6.4,-0.0029073676799384884
6.3,-0.003107851753725299
6.199999999999999,-0.003320355101976702
6.1,-0.003545466142895748
6.0,-0.0037837932786999318
5.8999999999999995,-0.0040359615649521174
5.8,-0.004302627143459858
5.7,-0.00458447058093725
5.6,-0.0048821890974437565
5.5,-0.0051965165503986555
5.3999999999999995,-0.005528205671012643
5.3,-0.0058780424971871525
5.199999999999999,-0.006246838601953186
5.1,-0.006635436644586434
5.0,-0.007044711480830301
4.8999999999999995,-0.007475570162895906
4.8,-0.007928951939462081
4.699999999999999,-0.008405832696567472
4.6,-0.008907223847387513
4.5,-0.00943417344245745
4.3999999999999995,-0.009987769500341415
4.3,-0.010569142228078476
4.199999999999999,-0.011179460690513565
4.1,-0.011819940581858646
4.0,-0.012491838674577593
3.8999999999999995,-0.013196461701170392
3.8,-0.01393516524395011
3.6999999999999993,-0.014709352624819871
3.5999999999999996,-0.015520479346164961
3.5,-0.01637005753174492
3.3999999999999995,-0.017259650375578417
3.3,-0.018190877693058383
3.1999999999999993,-0.019165422582290148
3.0999999999999996,-0.020185025872976325
3.0,-0.021251490567308906
2.8999999999999995,-0.022366676288854137
2.8,-0.02353252259723604
2.6999999999999993,-0.024751024563229862
2.5999999999999996,-0.026024250532330484
2.5,-0.02735433324296821
2.3999999999999995,-0.028743484259408092
2.3,-0.030193985089965736
2.1999999999999993,-0.03170818940745335
2.0999999999999996,-0.03328852304917973
2.0,-0.03493749511918054
1.9000000000000004,-0.03665768688598803
1.799999999999999,-0.03845175511330012
1.6999999999999993,-0.040322440941764626
1.5999999999999996,-0.04227255434585686
1.5,-0.04430499078722505
1.4000000000000004,-0.046422721222683094
1.299999999999999,-0.048628790993987536
1.1999999999999993,-0.05092633315051387
1.0999999999999996,-0.05331853847323487
1.0,-0.05580868434051922
0.9000000000000004,-0.05840012251567828
0.7999999999999989,-0.06109626582428973
0.6999999999999993,-0.06390060147687393
0.5999999999999996,-0.06681668218710968
0.5,-0.06984812173094213
0.3999999999999986,-0.07299858717502161
0.29999999999999893,-0.07627180331759575
0.1999999999999993,-0.07967154380672525
0.09999999999999964,-0.08320163003006087
0.0,-0.086865912241052
-0.10000000000000142,-0.09066827844073089
-0.20000000000000107,-0.09461263550392118
-0.3000000000000007,-0.09870291473035309
-0.40000000000000036,-0.10294304852997982
-0.5,-0.10733698041498485
-0.6000000000000014,-0.11188862836242208
-0.7000000000000011,-0.11660190146756122
-0.8000000000000007,-0.1214806788496503
-0.9000000000000004,-0.1265287963292394
-1.0,-0.13175003532595042
-1.1000000000000014,-0.13714811619713885
-1.200000000000001,-0.14272667492321034
-1.3000000000000007,-0.1484892597769516
-1.4000000000000004,-0.154439313559962
-1.5,-0.1605801680515384
-1.6000000000000014,-0.16691500737131548
-1.700000000000001,-0.1734468690894886
-1.8000000000000007,-0.18017863423480662
-1.9000000000000004,-0.1871129950981043
-2.0,-0.19425245523230217
-2.1000000000000014,-0.2015993005866079
-2.200000000000001,-0.20915558840428616
-2.3000000000000007,-0.21692314944310453
-2.4000000000000004,-0.22490352580284423
-2.5,-0.2330980053422138
-2.6000000000000014,-0.24150758282104334
-2.700000000000001,-0.25013292659359365
-2.8000000000000007,-0.25897442079703126
-2.9000000000000004,-0.2680320909664857
-3.0,-0.27730560403504967
-3.1000000000000014,-0.2867942894280162
-3.200000000000001,-0.2964970846619508
-3.3000000000000007,-0.3064125331242451
-3.4000000000000004,-0.31653879961623943
-3.5,-0.3268736259443017
-3.6000000000000014,-0.3374143386913886
-3.700000000000001,-0.34815783700459235
-3.8000000000000007,-0.35910058038268744
-3.9000000000000004,-0.3702385753534543
-4.0,-0.3815674054497009
-4.100000000000001,-0.3930821768083348
-4.200000000000001,-0.4047775459259384
-4.300000000000001,-0.41664769745430874
-4.4,-0.42868635197201854
-4.5,-0.44088679040932277
-4.600000000000001,-0.45324178299388507
-4.700000000000001,-0.46574364365170595
-4.800000000000001,-0.47838426664448264
-4.9,-0.4911550000041842
-5.0,-0.504046797633606
-5.100000000000001,-0.5170501227169666
-5.200000000000001,-0.5301549532710226
-5.300000000000001,-0.5433508998287095
-5.4,-0.5566270444568033
-5.5,-0.5699720462271074
-5.600000000000001,-0.5833741756333666
-5.700000000000001,-0.5968212246632021
-5.800000000000001,-0.6103005767421621
-5.9,-0.6237992089541677
-6.0,-0.6373036676166066
-6.100000000000001,-0.6508001593186208
-6.199999999999999,-0.6642744754259411
-6.300000000000001,-0.6777119898604411
-6.400000000000002,-0.691097831184706
-6.5,-0.7044166017156073
-6.600000000000001,-0.7176527128116561
-6.699999999999999,-0.7307902016862045
-6.800000000000001,-0.7438127813674811
-6.900000000000002,-0.7567038895484046
-7.0,-0.7694466541696698
-7.100000000000001,-0.7820239955602659
-7.199999999999999,-0.7944186164454692
-7.300000000000001,-0.8066128887040946
-7.400000000000002,-0.8185891370304788
-7.5,-0.8303294463107846
-7.600000000000001,-0.8418158098377759
-7.699999999999999,-0.8530300760201115
-7.800000000000001,-0.8639541654309468
-7.900000000000002,-0.8745698587553363
-8.0,-0.8848589794219208
-8.100000000000001,-0.8948034452282982
-8.2,-0.9043854043433441
-8.3,-0.9135870415732938
-8.400000000000002,-0.9223909780420314
-8.5,-0.930780046370927
-8.600000000000001,-0.9387374816371974
-8.7,-0.946247146194068
-8.8,-0.9532933209488448
-8.900000000000002,-0.9598610722916234
-9.0,-0.9659362359970558
-9.100000000000001,-0.9715054816172852
-9.200000000000003,-0.976556560061681
-9.3,-0.9810782963803888
-9.400000000000002,-0.9850607790573562
-9.5,-0.9884953969252486
-9.600000000000001,-0.9913751050638631
-9.700000000000003,-0.9936944248001289
-9.8,-0.995449675189608
-9.900000000000002,-0.9966388814230953
-10.0,-0.9972621861642494
-9.9,-0.9550600491015082
-9.8,-0.9188963279171958
-9.7,-0.8866688455677618
-9.6,-0.857358306294298
-9.5,-0.8303471965565024
-9.4,-0.8052171596162339
-9.3,-0.7816649183478575
-9.2,-0.7594607967509326
-9.1,-0.7384248709718655
-9.0,-0.7184129727222377
-8.9,-0.6993072790284494
-8.8,-0.6810100536269736
-8.7,-0.6634392563098501
-8.6,-0.6465252902487784
-8.5,-0.6302085836518145
-8.4,-0.6144377937000733
-8.3,-0.5991683293959937
-8.2,-0.584361375954856
-8.1,-0.5699827670957447
-8.0,-0.5560025656548007
-7.9,-0.5423942020521544
-7.8,-0.5291341645397019
-7.699999999999999,-0.5162015231929828
-7.6,-0.5035776937112324
-7.5,-0.49124594225791185
-7.4,-0.4791913585378005
-7.3,-0.4674005082971888
-7.199999999999999,-0.455861304260452
-7.1,-0.4445629406268914
-7.0,-0.43349560940875165
-6.9,-0.42265044047917755
-6.8,-0.41201941691770827
-6.699999999999999,-0.4015952914659948
-6.6,-0.39137141916167906
-6.5,-0.3813418458786799
-6.4,-0.3715010793436946
-6.3,-0.36184410689976687
-6.199999999999999,-0.3523663766324958
-6.1,-0.34306361140767905
-6.0,-0.3339320520101552
-5.8999999999999995,-0.3249680230466012
-5.8,-0.3161682532448751
-5.7,-0.30752963120495025
-5.6,-0.2990492509180598
-5.5,-0.29072441121158477
-5.3999999999999995,-0.28255254413966924
-5.3,-0.2745311661334071
-5.199999999999999,-0.26665795849201146
-5.1,-0.25893065136450844
-5.0,-0.25134705372575894
-4.8999999999999995,-0.2439050883484839
-4.8,-0.23660259362845437
-4.699999999999999,-0.22943753896775831
-4.6,-0.2224078898827031
-4.5,-0.21551160023225435
-4.3999999999999995,-0.2087466294264928
-4.3,-0.20211090356880845
-4.199999999999999,-0.19560237707327843
-4.1,-0.18921893885082142
-4.0,-0.18295844395055383
-3.8999999999999995,-0.17681873298869277
-3.8,-0.17079758440896597
-3.6999999999999993,-0.16489272280928446
-3.5999999999999996,-0.15910183448486492
-3.5,-0.15342254355843465
-3.3999999999999995,-0.14785243696024963
-3.3,-0.1423889922635979
-3.1999999999999993,-0.13702966150663798
-3.0999999999999996,-0.13177185287371884
-3.0,-0.12661285020421076
-2.8999999999999995,-0.12154991402280046
-2.8,-0.11658022880389751
-2.6999999999999993,-0.11170091185341846
-2.5999999999999996,-0.10690901053322932
-2.5,-0.10220151169804126
-2.3999999999999995,-0.09757532559717674
-2.3,-0.09302731418525667
-2.1999999999999993,-0.08855425892573265
-2.0999999999999996,-0.084152882440236
-2.0,-0.07981985072902376
-1.9000000000000004,-0.07555176095852545
-1.799999999999999,-0.07134515311868483
-1.6999999999999993,-0.06719651335362897
-1.5999999999999996,-0.06310226507988403
-1.5,-0.059058770651709835
-1.4000000000000004,-0.055062362447344526
-1.299999999999999,-0.05110929124363395
-1.1999999999999993,-0.0471957833925174
-1.0999999999999996,-0.04331800085299875
-1.0,-0.039472079493840795
-0.9000000000000004,-0.03565408857042485
-0.7999999999999989,-0.03186008346034441
-0.6999999999999993,-0.028086061254484207
-0.5999999999999996,-0.024328002945495086
-0.5,-0.020581845117106923
-0.3999999999999986,-0.016843508809927243
-0.29999999999999893,-0.013108885643653423
-0.1999999999999993,-0.009373850584637466
-0.09999999999999964,-0.0056342541743248375
0.0,-0.001885958056391246
0.10000000000000142,0.0018752055463977513
0.20000000000000107,0.00565338109659308
0.3000000000000007,0.009452727489644985
0.40000000000000036,0.013277374755205074
0.5,0.017131441820694704
0.6000000000000014,0.021019018747736595
0.7000000000000011,0.024944162291262728
0.8000000000000007,0.028910874805276876
0.9000000000000004,0.032923123116646025
1.0,0.03698479522640241
1.1000000000000014,0.04109971807331192
1.200000000000001,0.04527162422718334
1.3000000000000007,0.049504159660429536
1.4000000000000004,0.05380085266182277
1.5,0.05816511161604865
1.6000000000000014,0.06260021279125283
1.700000000000001,0.06710927591413451
1.8000000000000007,0.07169525750860828
1.9000000000000004,0.07636092758112056
2.0,0.08110885962864245
2.1000000000000014,0.08594141065465521
2.200000000000001,0.0908606967442438
2.3000000000000007,0.09586858196186654
2.4000000000000004,0.10096666724912495
2.5,0.1061562449056197
2.6000000000000014,0.11143830525028875
2.700000000000001,0.11681349887382453
2.8000000000000007,0.12228213663867393
2.9000000000000004,0.12784414193944826
3.0,0.13349905292336928
3.1000000000000014,0.13924599029380147
3.200000000000001,0.14508364287735276
3.3000000000000007,0.15101024875008306
3.4000000000000004,0.1570235763637129
3.5,0.16312090234116283
3.6000000000000014,0.16929899149253913
3.700000000000001,0.17555410347647182
3.8000000000000007,0.1818819417298556
3.9000000000000004,0.1882776778927564
4.0,0.19473589185636797
4.100000000000001,0.20125063837639345
4.200000000000001,0.20781534271208102
4.300000000000001,0.21442287501116652
4.4,0.22106549701916833
4.5,0.22773489982697015
4.600000000000001,0.23442215169033886
4.700000000000001,0.241117763533083
4.800000000000001,0.2478116423176857
4.9,0.25449314211556384
5.0,0.2611510496741687
5.100000000000001,0.2677736232747918
5.200000000000001,0.2743485860712269
5.300000000000001,0.2808631893724822
5.4,0.28730420043032723
5.5,0.2936579535095518
5.600000000000001,0.2999104098400096
5.700000000000001,0.30604716760862516
5.800000000000001,0.31205353745455966
5.9,0.3179145735554556
6.0,0.3236151535634946
6.100000000000001,0.32914001635298007
6.199999999999999,0.33447387082219393
6.300000000000001,0.3396014580658857
6.400000000000002,0.3445076202091002
6.5,0.34917742697260223
6.600000000000001,0.3535962200817977
6.699999999999999,0.35774976425706484
6.800000000000001,0.3616243293702581
6.900000000000002,0.36520683144303234
7.0,0.3684849003704471
7.100000000000001,0.3714470497850897
7.199999999999999,0.37408277919759314
7.300000000000001,0.3763826950109461
7.400000000000002,0.3783386570699321
7.5,0.37994386747897124
7.600000000000001,0.3811930016084375
7.699999999999999,0.38208233021919114
7.800000000000001,0.3826097949577445
7.900000000000002,0.382775098284327
8.0,0.3825797945111731
8.100000000000001,0.38202730534564466
8.2,0.38112298206272044
8.3,0.3798740866312045
8.400000000000002,0.37828975618658944
8.5,0.37638100081061054
8.600000000000001,0.37416056919425955
8.7,0.371642868701727
8.8,0.36884382215163214
8.900000000000002,0.3657806924017848
9.0,0.36247190027260956
9.100000000000001,0.35893681915588616
9.200000000000003,0.35519555185992147
9.3,0.3512686674866927
9.400000000000002,0.3471770249063866
9.5,0.34294146744606735
9.600000000000001,0.3385826385926549
9.700000000000003,0.3341207566176507
9.8,0.3295754202881085
9.900000000000002,0.324965421238943
