Potential,Flux
10.0,-0.00044728221126888457
9.9,-0.00035102809547993274
9.8,-0.00032220559553763906
9.7,-0.00031584512782956153
9.6,-0.00032040037289959855
9.5,-0.0003316258379015835
9.4,-0.0003476463561469245
9.3,-0.0003675371118561088
9.2,-0.0003908384726969416
9.1,-0.0004173228429493747
9.0,-0.00044690695588656126
8.9,-0.00047959525240059975
8.8,-0.0005154465743117953
8.7,-0.0005545686132535366
8.6,-0.0005970945959887786
8.5,-0.0006431910559712151
8.4,-0.0006930422902229338
8.3,-0.0007468514695574413
8.2,-0.0008048406385796625
8.1,-0.0008672518259089657
8.0,-0.0009343359419489161
7.9,-0.001006368322009621
7.8,-0.001083633183185384
7.699999999999999,-0.0011664358368079775
7.6,-0.00125509047599337
7.5,-0.001349934608541048
7.4,-0.0014513168444807434
7.3,-0.0015596013369645334
7.199999999999999,-0.0016751744436049876
7.1,-0.001798435844690971
7.0,-0.0019298007636336934
6.9,-0.0020697021874127586
6.8,-0.002218595307468263
6.699999999999999,-0.002376951968585672
6.6,-0.0025452651097879198
6.5,-0.00272403988255121
6.4,-0.002913811414373413
6.3,-0.0031151281554286925
6.199999999999999,-0.003328568531912879
6.1,-0.003554724292698097
6.0,-0.0037942138320090635
5.8999999999999995,-0.00404768329964611
5.8,-0.004315799939647036
5.7,-0.004599250980064085
5.6,-0.00489876472720141
5.5,-0.005215081699816437
5.3999999999999995,-0.0055489801642494285
5.3,-0.005901267252639286
5.199999999999999,-0.006272781183369602
5.1,-0.00666438682017656
5.0,-0.0070769889948252285
4.8999999999999995,-0.0075115280662174655
4.8,-0.007968973259053769
4.699999999999999,-0.00845034264784772
4.6,-0.008956685393357589
4.5,-0.009489092844816582
4.3999999999999995,-0.010048708531940065
4.3,-0.01063670485024204
4.199999999999999,-0.011254316367725892
4.1,-0.011902816510200864
4.0,-0.012583535324850459
3.8999999999999995,-0.013297852818894285
3.8,-0.014047197849365034
3.6999999999999993,-0.014833070327568976
3.5999999999999996,-0.015657016794179412
3.5,-0.016520655954366248
3.3999999999999995,-0.017425662024450617
3.3,-0.018373781385250254
3.1999999999999993,-0.0193668237002953
3.0999999999999996,-0.02040667967939669
3.0,-0.021495308866192886
2.8999999999999995,-0.02263474185859593
2.8,-0.023827099182582856
2.6999999999999993,-0.025074582410411494
2.5999999999999996,-0.02637947305039745
2.5,-0.027744140318475274
2.3999999999999995,-0.029171051130205683
2.3,-0.030662761218991363
2.1999999999999993,-0.0322219162463
2.0999999999999996,-0.033851285108355
2.0,-0.03555370220453824
1.9000000000000004,-0.03733213294054849
1.799999999999999,-0.03918964264215674
1.6999999999999993,-0.041129397665429224
1.5999999999999996,-0.043154690931856976
1.5,-0.04526891639322628
1.4000000000000004,-0.04747559789741729
1.299999999999999,-0.04977836032260541
1.1999999999999993,-0.05218095844305992
1.0999999999999996,-0.054687275818920966
1.0,-0.05730130370196207
0.9000000000000004,-0.06002716101960459
0.7999999999999989,-0.06286910325670192
0.6999999999999993,-0.06583149469996386
0.5999999999999996,-0.06891884063442433
0.5,-0.07213575847764275
0.3999999999999986,-0.07548698777171126
0.29999999999999893,-0.07897739240370072
0.1999999999999993,-0.08261200834525084
0.09999999999999964,-0.08639588933156972
0.0,-0.09033427450511056
-0.10000000000000142,-0.0944324951568376
-0.20000000000000107,-0.0986959902693485
-0.3000000000000007,-0.10313030873732032
-0.40000000000000036,-0.1077410693994807
-0.5,-0.11253400211685971
-0.6000000000000014,-0.11751491335587616
-0.7000000000000011,-0.1226896351180784
-0.8000000000000007,-0.12806412263977052
-0.9000000000000004,-0.13364433670837172
-1.0,-0.1394362814099992
-1.1000000000000014,-0.14544598081478455
-1.200000000000001,-0.15167943900884495
-1.3000000000000007,-0.15814267340097388
-1.4000000000000004,-0.16484164921948263
-1.5,-0.17178228728376155
-1.6000000000000014,-0.17897040627268268
-1.700000000000001,-0.18641174159839125
-1.8000000000000007,-0.1941119676107661
-1.9000000000000004,-0.20207630901936113
-2.0,-0.21031025143614102
-2.1000000000000014,-0.21881873646378835
-2.200000000000001,-0.22760655138398533
-2.3000000000000007,-0.23667813264793836
-2.4000000000000004,-0.2460378845103861
-2.5,-0.2556893918814751
-2.6000000000000014,-0.265636110885481
-2.700000000000001,-0.2758810435654624
-2.8000000000000007,-0.28642663796318857
-2.9000000000000004,-0.2972748458507368
-3.0,-0.30842704279443467
-3.1000000000000014,-0.31988394821880206
-3.200000000000001,-0.3316456420598968
-3.3000000000000007,-0.34371145929412705
-3.4000000000000004,-0.35607997661557533
-3.5,-0.36874896469640817
-3.6000000000000014,-0.38171529936903426
-3.700000000000001,-0.3949748461629099
-3.8000000000000007,-0.4085227733874319
-3.9000000000000004,-0.4223529970204254
-4.0,-0.4364585570737489
-4.100000000000001,-0.45083101141152326
-4.200000000000001,-0.4654613783294792
-4.300000000000001,-0.4803391251417821
-4.4,-0.4954525201217308
-4.5,-0.5107887213195994
-4.600000000000001,-0.5263334756921978
-4.700000000000001,-0.542071455500448
-4.800000000000001,-0.5579858597393184
-4.9,-0.5740586384028745
-5.0,-0.5902704969251715
-5.100000000000001,-0.6066007818272823
-5.200000000000001,-0.6230274252061463
-5.300000000000001,-0.6395274310122545
-5.4,-0.6560762733087699
-5.5,-0.6726482493224495
-5.600000000000001,-0.689216528293457
-5.700000000000001,-0.7057533091270329
-5.800000000000001,-0.7222294629016801
-5.9,-0.7386150446819784
-6.0,-0.7548798564016579
-6.100000000000001,-0.7709917781983933
-6.199999999999999,-0.7869186713360676
-6.300000000000001,-0.8026275077899214
-6.400000000000002,-0.8180854482731093
-6.5,-0.8332589052084671
-6.600000000000001,-0.8481141849925322
-6.699999999999999,-0.8626177178117089
-6.800000000000001,-0.8767360049066752
-6.900000000000002,-0.8904361936679095
-7.0,-0.9036855269650701
-7.100000000000001,-0.916452534416301
-7.199999999999999,-0.9287061719653877
-7.300000000000001,-0.9404170969729009
-7.400000000000002,-0.9515565718709595
-7.5,-0.9620983365543623
-7.600000000000001,-0.9720170340843381
-7.699999999999999,-0.981289957624476
-7.800000000000001,-0.9898961333965062
-7.900000000000002,-0.9978170084634641
-8.0,-1.0050367171832164
-8.100000000000001,-1.0115418774825358
-8.2,-1.0173218950582097
-8.3,-1.0223693963640201
-8.400000000000002,-1.0266798278202316
-8.5,-1.0302518038685093
-8.600000000000001,-1.033087130286603
-8.7,-1.0351907431260798
-8.8,-1.0365708361104176
-8.900000000000002,-1.0372386091694885
-9.0,-1.0372083894538697
-9.100000000000001,-1.0364974220578027
-9.200000000000003,-1.035125631598799
-9.3,-1.0331156446996559
-9.400000000000002,-1.030492416120854
-9.5,-1.0272830255897425
-9.600000000000001,-1.0235164168981292
-9.700000000000003,-1.0192233698691489
-9.8,-1.0144356735186655
-9.900000000000002,-1.0091863503203236
-10.0,-1.0035090797222423
-9.9,-0.9517731519581574
-9.8,-0.9111576620979278
-9.7,-0.8767191936320806
-9.6,-0.8463821468684962
-9.5,-0.8190264771945621
-9.4,-0.7939585563998541
-9.3,-0.7707175991855664
-9.2,-0.7489738013122249
-9.1,-0.7284837222343299
-9.0,-0.7090619952299093
-8.9,-0.690561499094855
-8.8,-0.6728670798317182
-8.7,-0.6558835743963876
-8.6,-0.6395328799868594
-8.5,-0.6237498942351927
-8.4,-0.6084797876670933
-8.3,-0.5936761734992579
-8.2,-0.5792988544417454
-8.1,-0.5653142601258487
-8.0,-0.5516917669923238
-7.9,-0.5384069817759851
-7.8,-0.5254365478823964
-7.699999999999999,-0.5127612764943557
-7.6,-0.5003638087197615
-7.5,-0.4882290574603765
-7.4,-0.476343784416855
-7.3,-0.4646961712650999
-7.199999999999999,-0.45327589098809185
-7.1,-0.4420737370613992
-7.0,-0.4310815676644708
-6.9,-0.4202921274898408
-6.8,-0.4096990161017722
-6.699999999999999,-0.3992965483257116
-6.6,-0.38907960409062525
-6.5,-0.37904364064145213
-6.4,-0.36918460566415234
-6.3,-0.3594988615129857
-6.199999999999999,-0.3499827805342193
-6.1,-0.3406341825273884
-6.0,-0.33144961469888656
-5.8999999999999995,-0.3224268518842166
-5.8,-0.3135634543682819
-5.7,-0.30485771324029187
-5.6,-0.2963072737172112
-5.5,-0.2879102722896931
-5.3999999999999995,-0.2796650205860729
-5.3,-0.27156969839570166
-5.199999999999999,-0.2636226187346935
-5.1,-0.25582211959918055
-5.0,-0.2481665323239568
-4.8999999999999995,-0.24065426151853586
-4.8,-0.23328335874150952
-4.699999999999999,-0.22605241567497103
-4.6,-0.21895952606598712
-4.5,-0.21200290134526512
-4.3999999999999995,-0.20518070686925682
-4.3,-0.19849099475166554
-4.199999999999999,-0.19193182099197514
-4.1,-0.18550117664162258
-4.0,-0.17919670969313017
-3.8999999999999995,-0.17301646115797098
-3.8,-0.16695806681621406
-3.6999999999999993,-0.16101914801502915
-3.5999999999999996,-0.1551972500513088
-3.5,-0.14948985771479073
-3.3999999999999995,-0.14389432534400726
-3.3,-0.13840795065611644
-3.1999999999999993,-0.13302793533398471
-3.0999999999999996,-0.12775143387599996
-3.0,-0.1225754531208878
-2.8999999999999995,-0.11749696604557158
-2.8,-0.11251281073487718
-2.6999999999999993,-0.10761981528162323
-2.5999999999999996,-0.10281467843764602
-2.5,-0.09809403234140035
-2.3999999999999995,-0.09345443918729046
-2.3,-0.0888923706865441
-2.1999999999999993,-0.08440424137390323
-2.0999999999999996,-0.0799863736355988
-2.0,-0.07563506321250912
-1.9000000000000004,-0.07134646651252297
-1.799999999999999,-0.06711673772308302
-1.6999999999999993,-0.06294192445022162
-1.5999999999999996,-0.05881807707552866
-1.5,-0.054740979527068134
-1.4000000000000004,-0.05070665776152339
-1.299999999999999,-0.04671087183716338
-1.1999999999999993,-0.04274937681625346
-1.0999999999999996,-0.03881786836412715
-1.0,-0.03491199052074734
-0.9000000000000004,-0.031027332370037186
-0.7999999999999989,-0.027159429150103165
-0.6999999999999993,-0.02330377169013076
-0.5999999999999996,-0.019455794197931198
-0.5,-0.015610900350182533
-0.3999999999999986,-0.011764430540850412
-0.29999999999999893,-0.007911704069663017
-0.1999999999999993,-0.004047989721200906
-0.09999999999999964,-0.00016853018980356183
0.0,0.0037314601408766634
0.10000000000000142,0.007656802414324204
0.20000000000000107,0.011612324990473155
0.3000000000000007,0.015602877323495079
0.40000000000000036,0.01963333051691052
0.5,0.02370852736355289
0.6000000000000014,0.027833341187388783
0.7000000000000011,0.032012598127906244
0.8000000000000007,0.036251125434816345
0.9000000000000004,0.04055371372047034
1.0,0.044925086983838014
1.1000000000000014,0.04936992814563723
1.200000000000001,0.05389286128476556
1.3000000000000007,0.058498401678264145
1.4000000000000004,0.06319097911600124
1.5,0.06797488572019006
1.6000000000000014,0.07285428149650386
1.700000000000001,0.07783316657850037
1.8000000000000007,0.08291535236182312
1.9000000000000004,0.08810444818152519
2.0,0.09340383133604746
2.1000000000000014,0.0988166015680747
2.200000000000001,0.1043455943872118
2.3000000000000007,0.10999330335437207
2.4000000000000004,0.11576186786932396
2.5,0.12165305429689965
2.6000000000000014,0.12766819601495172
2.700000000000001,0.1338081700996696
2.8000000000000007,0.140073231902349
2.9000000000000004,0.14646360457781782
3.0,0.15297812017145418
3.1000000000000014,0.15961560961841315
3.200000000000001,0.16637402011632219
3.3000000000000007,0.17325077594776417
3.4000000000000004,0.1802422755492472
3.5,0.18734434892309082
3.6000000000000014,0.19455196231810135
3.700000000000001,0.20185922933180223
3.8000000000000007,0.20925944421712472
3.9000000000000004,0.21674471772925585
4.0,0.2243066321572229
4.100000000000001,0.2319355496549491
4.200000000000001,0.23962085649031906
4.300000000000001,0.24735104187101342
4.4,0.25511352919060926
4.5,0.2628947759486522
4.600000000000001,0.2706802681995413
4.700000000000001,0.2784544961276225
4.800000000000001,0.2862010572979301
4.9,0.2939026411130641
5.0,0.30154111541058626
5.100000000000001,0.30909747206209204
5.200000000000001,0.31655218113435524
5.300000000000001,0.32388495330160083
5.4,0.3310750085194769
5.5,0.33810120148025646
5.600000000000001,0.3449420893364419
5.700000000000001,0.3515760826910963
5.800000000000001,0.3579815899268368
5.9,0.36413723258910125
6.0,0.3700219031177454
6.100000000000001,0.37561504018235325
6.199999999999999,0.38089678744412936
6.300000000000001,0.38584816119957566
6.400000000000002,0.3904512413388517
6.5,0.394689417815286
6.600000000000001,0.3985474594792038
6.699999999999999,0.40201181827903554
6.800000000000001,0.4050706647884539
6.900000000000002,0.40771440112941093
7.0,0.4099351202935253
7.100000000000001,0.411727367755077
7.199999999999999,0.41308801934647477
7.300000000000001,0.41401624462089615
7.400000000000002,0.41451369336975574
7.5,0.4145844478831151
7.600000000000001,0.41423500185544526
7.699999999999999,0.41347421153581365
7.800000000000001,0.4123131858158047
7.900000000000002,0.41076522072636124
8.0,0.4088456440065613
8.100000000000001,0.40657144095845865
8.2,0.40396146983034953
8.3,0.4010357912420659
8.400000000000002,0.39781571148367334
8.5,0.3943233872760743
8.600000000000001,0.39058165368643927
8.7,0.3866137543440118
8.8,0.38244300615275506
8.900000000000002,0.37809272712685527
9.0,0.3735857523334829
9.100000000000001,0.36894456489910965
9.200000000000003,0.3641908374873992
9.3,0.3593453523631496
9.400000000000002,0.3544279247869042
9.5,0.34945721094636895
9.600000000000001,0.3444507090666349
9.700000000000003,0.3394246261834155
9.8,0.3343938892452769
9.900000000000002,0.32937211624783913
