Potential,Flux
10.0,-0.0007331879547933795
9.9,-0.00044685810607347776
9.8,-0.00039778624838504584
9.7,-0.00039050984668165256
9.6,-0.00040002778867176403
9.5,-0.000419214662983336
9.4,-0.0004454780988538687
9.3,-0.0004775535522583141
9.2,-0.0005150657678143489
9.1,-0.0005579037232195105
9.0,-0.0006061884327834832
8.9,-0.0006601907909242755
8.8,-0.0007216149899846869
8.7,-0.0007861833406508367
8.6,-0.0008601441781053154
8.5,-0.0009415057622419454
8.4,-0.001031149610142279
8.3,-0.0011297329738368944
8.2,-0.001238359415012269
8.1,-0.0013575440771518288
8.0,-0.0014884782295609966
7.9,-0.0016337664554555431
7.8,-0.0017922208161991193
7.699999999999999,-0.001966069529402148
7.6,-0.0021573365316385207
7.5,-0.0023672719340339654
7.4,-0.002597700943240966
7.3,-0.0028505808824519363
7.199999999999999,-0.0031280056322913197
7.1,-0.0034324176834132913
7.0,-0.003766255085579928
6.9,-0.004132292286129768
6.8,-0.004533654562877132
6.699999999999999,-0.004976125067557291
6.6,-0.005453965057355958
6.5,-0.005983928907937752
6.4,-0.006562616006178246
6.3,-0.007216726105596649
6.199999999999999,-0.007845206706491581
6.1,-0.008513730831438693
6.0,-0.009549938617681164
5.8999999999999995,-0.010413031548139884
5.8,-0.011397670585111541
5.7,-0.012920463587917652
5.6,-0.013454491964992599
5.5,-0.01492034495953476
5.3999999999999995,-0.01635647173259258
5.3,-0.017914488781300975
5.199999999999999,-0.019698944697665866
5.1,-0.021427237761884044
5.0,-0.02345825422800374
4.8999999999999995,-0.02567222101568234
4.8,-0.024924411423654647
4.699999999999999,-0.0318368686968995
4.6,-0.03395141945361502
4.5,-0.036793142976776494
4.3999999999999995,-0.04007588927379402
4.3,-0.043654314607621814
4.199999999999999,-0.047577977113633096
4.1,-0.05184501050692347
4.0,-0.0564570090677563
3.8999999999999995,-0.061439183740574776
3.8,-0.06690436760159457
3.6999999999999993,-0.07293309733924502
3.5999999999999996,-0.07882404950976252
3.5,-0.08596911182934264
3.3999999999999995,-0.09331428629799632
3.3,-0.10124280858114787
3.1999999999999993,-0.10975089503872937
3.0999999999999996,-0.11889628726002854
3.0,-0.1296821783292046
2.8999999999999995,-0.13897332840073773
2.8,-0.15037025735686882
2.6999999999999993,-0.16264394497866874
2.5999999999999996,-0.06303178978761537
2.5,-0.23537160331876805
2.3999999999999995,-0.20720905880011742
2.3,-0.2255975117826381
2.1999999999999993,-0.24036734824761652
2.0999999999999996,-0.24749499005771725
2.0,-0.27560003723614557
1.9000000000000004,-0.29280616598015285
1.799999999999999,-0.31238331588134827
1.6999999999999993,-0.3328868092289383
1.5999999999999996,-0.35459459257758397
1.5,-0.37732696744896543
1.4000000000000004,-0.40074703888670626
1.299999999999999,-0.4274515319480088
1.1999999999999993,-0.45310763141515054
1.0999999999999996,-0.4768930594867271
1.0,-0.5052424356666307
0.9000000000000004,-0.579036396608501
0.7999999999999989,-0.5530598468084236
0.6999999999999993,-0.58684744730364
0.5999999999999996,-0.6182161516044005
0.5,-0.6495527504757348
0.3999999999999986,-0.6808292352111778
0.29999999999999893,-0.7006904845230366
0.1999999999999993,-0.725426294589937
0.09999999999999964,-0.7797716705670865
0.0,-0.8089126035670802
-0.10000000000000142,-0.8389931394070516
-0.20000000000000107,-0.8690168062930326
-0.3000000000000007,-0.8987173150121208
-0.40000000000000036,-0.9965127223399151
-0.5,-0.9433529546409858
-0.6000000000000014,-0.9778326326426168
-0.7000000000000011,-1.0059224453407012
-0.8000000000000007,-1.0328294963724005
-0.9000000000000004,-1.0575957987146722
-1.0,-1.0812018264028112
-1.1000000000000014,-1.1028744800745116
-1.200000000000001,-1.1232610086508998
-1.3000000000000007,-1.1948527373073503
-1.4000000000000004,-1.1487172274504687
-1.5,-1.1678320810393217
-1.6000000000000014,-1.1831658025540648
-1.700000000000001,-1.1957704398879443
-1.8000000000000007,-1.2061900228621525
-1.9000000000000004,-1.214622431522372
-2.0,-1.2211660005423397
-2.1000000000000014,-1.2259070109044146
-2.200000000000001,-1.228916086115639
-2.3000000000000007,-1.2302833315991357
-2.4000000000000004,-1.2300337753901047
-2.5,-1.2283028413828667
-2.6000000000000014,-1.2254928158372813
-2.700000000000001,-1.2206931743197202
-2.8000000000000007,-1.2150182787662445
-2.9000000000000004,-1.208329631074978
-3.0,-1.2005673868942246
-3.1000000000000014,-1.1918860637338824
-3.200000000000001,-1.1824044779396026
-3.3000000000000007,-1.1722080120457612
-3.4000000000000004,-1.1613112668729109
-3.5,-1.150060442572931
-3.6000000000000014,-1.1382659212411106
-3.700000000000001,-1.1261442986465475
-3.8000000000000007,-1.113800260910125
-3.9000000000000004,-1.1010593599369844
-4.0,-1.0882548995283514
-4.100000000000001,-1.0705767962415624
-4.200000000000001,-1.0603812666820644
-4.300000000000001,-1.0530307732736777
-4.4,-1.0402265289422008
-4.5,-1.023136760938681
-4.600000000000001,-1.011024977348729
-4.700000000000001,-0.9976769053954282
-4.800000000000001,-0.9866065345948138
-4.9,-0.9743528671390944
-5.0,-0.9622781897700161
-5.100000000000001,-0.9504601789639411
-5.200000000000001,-0.7686456825889421
-5.300000000000001,-1.070385374501992
-5.4,-0.9079009744700217
-5.5,-0.9089331527711852
-5.600000000000001,-0.8979864790648051
-5.700000000000001,-0.8871210114766437
-5.800000000000001,-0.876568266063027
-5.9,-0.866356330286866
-6.0,-0.8564782506478852
-6.100000000000001,-0.8467511604728917
-6.199999999999999,-0.8376133183232715
-6.300000000000001,-0.8281596358336585
-6.400000000000002,-0.8198161988853814
-6.5,-0.8111578540456743
-6.600000000000001,-0.8027850795927494
-6.699999999999999,-0.7946441307922492
-6.800000000000001,-0.7866979416862319
-6.900000000000002,-0.7789742931772758
-7.0,-0.7714832995012189
-7.100000000000001,-0.7641037077024682
-7.199999999999999,-0.7569628965309327
-7.300000000000001,-0.7499810703720522
-7.400000000000002,-0.7431462230138297
-7.5,-0.7363396706781822
-7.600000000000001,-0.7302147493094824
-7.699999999999999,-0.7238996290598321
-7.800000000000001,-0.7176004425662325
-7.900000000000002,-0.71160197109843
-8.0,-0.70579022938555
-8.100000000000001,-0.6999595764025507
-8.2,-0.6943697288073342
-8.3,-0.6889182880415179
-8.400000000000002,-0.6835379116453683
-8.5,-0.6783036235035594
-8.600000000000001,-0.673183613957018
-8.7,-0.6681766240215076
-8.8,-0.6631977698696306
-8.900000000000002,-0.6585198238529683
-9.0,-0.6537994523114071
-9.100000000000001,-0.6491998100080846
-9.200000000000003,-0.6446966797739317
-9.3,-0.6402909068052576
-9.400000000000002,-0.6359680355342429
-9.5,-0.631737749130952
-9.600000000000001,-0.6275899793904347
-9.700000000000003,-0.6235236671165573
-9.8,-0.6195362002277619
-9.900000000000002,-0.615625570191819
-10.0,-0.6118063950334013
-9.9,-0.6060270415835998
-9.8,-0.6011786380386367
-9.7,-0.5968041427110299
-9.6,-0.5926066792448157
-9.5,-0.5885488032781466
-9.4,-0.5845910144592487
-9.3,-0.5807616968714
-9.2,-0.5769903105041357
-9.1,-0.5732958796274626
-9.0,-0.5696779188787624
-8.9,-0.5660914403644163
-8.8,-0.5617310097714295
-8.7,-0.5595110159038741
-8.6,-0.5578436360455589
-8.5,-0.5505491910799687
-8.4,-0.5491535513997559
-8.3,-0.5456197154935644
-8.2,-0.5423341884521621
-8.1,-0.539073613543134
-8.0,-0.5358348621579967
-7.9,-0.5326137100282458
-7.8,-0.5294071672538869
-7.699999999999999,-0.5262124033039717
-7.6,-0.5230238045699637
-7.5,-0.519840674612429
-7.4,-0.5166581176340584
-7.3,-0.5134653332464906
-7.199999999999999,-0.5102831881521885
-7.1,-0.5070776622553841
-7.0,-0.5038587125652527
-6.9,-0.5006202325255615
-6.8,-0.4973489477894111
-6.699999999999999,-0.49407117213434715
-6.6,-0.49074277237368125
-6.5,-0.48736970853155426
-6.4,-0.48397009995079787
-6.3,-0.4804089311603865
-6.199999999999999,-0.4769708317545196
-6.1,-0.4734362240091383
-6.0,-0.4697482378253348
-5.8999999999999995,-0.46601738135088056
-5.8,-0.4621937639212592
-5.7,-0.45826886924116295
-5.6,-0.45423968947355675
-5.5,-0.4500702791010447
-5.3999999999999995,-0.4460317215224108
-5.3,-0.441332795100835
-5.199999999999999,-0.43682523171578724
-5.1,-0.43211958282440843
-5.0,-0.42739506850297815
-4.8999999999999995,-0.4220873861190966
-4.8,-0.4168023266457044
-4.699999999999999,-0.41129458821370646
-4.6,-0.40553270137799746
-4.5,-0.39944927639895544
-4.3999999999999995,-0.39324312611777046
-4.3,-0.3866244348976755
-4.199999999999999,-0.3797141753109079
-4.1,-0.3721916474325182
-4.0,-0.3623544671260692
-3.8999999999999995,-0.35812082514741217
-3.8,-0.34857216349437614
-3.6999999999999993,-0.3396167622127244
-3.5999999999999996,-0.33024911680334945
-3.5,-0.32033527247454785
-3.3999999999999995,-0.30976721902831184
-3.3,-0.299113838558851
-3.1999999999999993,-0.2874648152850767
-3.0999999999999996,-0.2753051157877717
-3.0,-0.2625232643771458
-2.8999999999999995,-0.2498242640536219
-2.8,-0.2347686775538982
-2.6999999999999993,-0.21978913702924707
-2.5999999999999996,-0.20294893848804563
-2.5,-0.18798808829045832
-2.3999999999999995,-0.17061081450386872
-2.3,-0.15234343120340554
-2.1999999999999993,-0.13332191378667702
-2.0999999999999996,-0.11343324252122144
-2.0,-0.09265175460182462
-1.9000000000000004,-0.07130614765316068
-1.799999999999999,-0.04834522504548744
-1.6999999999999993,-0.024901276873823264
-1.5999999999999996,-0.0006750094927454597
-1.5,0.9947544005184383
-1.4000000000000004,-0.1404794316983704
-1.299999999999999,-0.3267383011373859
-1.1999999999999993,0.09709721054962372
-1.0999999999999996,0.11168690278173798
-1.0,0.14748199772540715
-0.9000000000000004,0.178691862973146
-0.7999999999999989,0.21070076461349174
-0.6999999999999993,0.24312868440734547
-0.5999999999999996,0.28764167159245346
-0.5,0.3061955300420749
-0.3999999999999986,0.34030259776773875
-0.29999999999999893,0.3730016762126809
-0.1999999999999993,0.4058045172117275
-0.09999999999999964,0.4382796586765991
0.0,0.4705470191268546
0.10000000000000142,0.5019245502557723
0.20000000000000107,0.5327904673002593
0.3000000000000007,0.5733112612427149
0.40000000000000036,0.5904605226980664
0.5,0.6198542989999112
0.6000000000000014,0.6475149616491649
0.7000000000000011,0.6731952373328909
0.8000000000000007,0.6986204548198316
0.9000000000000004,0.7217483810606495
1.0,0.7539371948972473
1.1000000000000014,0.7632990306483123
1.200000000000001,0.7801021117970208
1.3000000000000007,0.797432126997677
1.4000000000000004,0.8116729477425366
1.5,0.825117960623345
1.6000000000000014,0.8359322767326205
1.700000000000001,0.8448313537634533
1.8000000000000007,0.8524785910513089
1.9000000000000004,0.8567460119124348
2.0,0.8600492329424725
2.1000000000000014,0.8614384072735959
2.200000000000001,0.8613251878397676
2.3000000000000007,0.859425414168058
2.4000000000000004,0.8565471731891705
2.5,0.8600494183497176
2.6000000000000014,0.8539325380141349
2.700000000000001,0.8320976674358604
2.8000000000000007,0.8271549034599701
2.9000000000000004,0.8184201760741416
3.0,0.3588942554255681
3.1000000000000014,1.0777920000926144
3.200000000000001,0.8058161415913645
3.3000000000000007,0.7912134469822973
3.4000000000000004,0.7753278152833332
3.5,0.7597334594766636
3.6000000000000014,0.7446701966173919
3.700000000000001,0.7299021276274686
3.8000000000000007,0.7153749082000616
3.9000000000000004,0.70091723425314
4.0,0.6870813129555842
4.100000000000001,0.6729473989164347
4.200000000000001,0.6595546320209422
4.300000000000001,0.6460859836021626
4.4,0.632896812735595
4.5,0.6200637658881902
4.600000000000001,0.6074123337640458
4.700000000000001,0.5949241410618811
4.800000000000001,0.5829105897969811
4.9,0.5710980421902434
5.0,0.5597150154468267
5.100000000000001,0.5484791776311226
5.200000000000001,0.537733971794907
5.300000000000001,0.5290584137451759
5.4,0.5168150407630634
5.5,0.5063700614371669
5.600000000000001,0.4970147293725802
5.700000000000001,0.4877563941629859
5.800000000000001,0.47874899156141737
5.9,0.4700752420649934
6.0,0.46135486209131216
6.100000000000001,0.4531132702378926
6.199999999999999,0.4448257528988364
6.300000000000001,0.43742578781369446
6.400000000000002,0.4297791533769413
6.5,0.42246504405873964
6.600000000000001,0.4152990984440663
6.699999999999999,0.4084016369532151
6.800000000000001,0.4012911336559455
6.900000000000002,0.39456400369175526
7.0,0.3894427391681887
7.100000000000001,0.3829665351506861
7.199999999999999,0.3769277068244037
7.300000000000001,0.37111887007945654
7.400000000000002,0.3654811486786258
7.5,0.36003002024109776
7.600000000000001,0.3546803684084665
7.699999999999999,0.3495221001514892
7.800000000000001,0.34449926356039384
7.900000000000002,0.3396075853867586
8.0,0.3348512833678541
8.100000000000001,0.33023071055460207
8.2,0.3260232261936835
8.3,0.32115050507819376
8.400000000000002,0.3169274032099878
8.5,0.3128270964491975
8.600000000000001,0.30877345680302426
8.7,0.304814808949061
8.8,0.30095097192095466
8.900000000000002,0.29718090432950817
9.0,0.2935002785253715
9.100000000000001,0.2899038120673936
9.200000000000003,0.2864038362027088
9.3,0.282953316332879
9.400000000000002,0.279608332043324
9.5,0.2763340933853442
9.600000000000001,0.2731322390481239
9.700000000000003,0.2700023915558347
9.8,0.2669359933094029
9.900000000000002,0.2639506302415384
