Potential,Flux
0.755379149453578,-0.00015654273304741955
0.753379149453578,-0.00015730541458203946
0.751379149453578,-0.00015806809611665937
0.749379149453578,-0.0001588307776512793
0.747379149453578,-0.0001595934591858992
0.745379149453578,-0.00016035614072051912
0.743379149453578,-0.00016111882225513903
0.741379149453578,-0.00016188150378975894
0.739379149453578,-0.00016264418532437887
0.737379149453578,-0.00016340686685899878
0.735379149453578,-0.0001641695483936187
0.733379149453578,-0.0001649322299282386
0.731379149453578,-0.0001656949114628585
0.729379149453578,-0.00016645759299747844
0.727379149453578,-0.00016722027453209835
0.725379149453578,-0.00016798295606671826
0.723379149453578,-0.00016874563760133817
0.721379149453578,-0.0001695083191359581
0.719379149453578,-0.000170271000670578
0.717379149453578,-0.00017095456624213772
0.715379149453578,-0.00017091724323492385
0.7133791494535779,-0.00017087992022770998
0.7113791494535779,-0.0001708425972204961
0.7093791494535779,-0.00017080527421328224
0.7073791494535779,-0.00017076795120606837
0.7053791494535779,-0.0001707306281988545
0.7033791494535779,-0.00017069330519164062
0.7013791494535779,-0.00017065598218442675
0.6993791494535779,-0.00017061865917721288
0.6973791494535779,-0.000170581336169999
0.6953791494535779,-0.00017054401316278514
0.6933791494535779,-0.00017050669015557127
0.6913791494535779,-0.0001704693671483574
0.6893791494535779,-0.00017043204414114352
0.6873791494535779,-0.00017039472113392965
0.6853791494535779,-0.00017035739812671575
0.6833791494535779,-0.00017032007511950188
0.681379149453578,-0.000170282752112288
0.679379149453578,-0.00017024542910507414
0.677379149453578,-0.00017020810609786027
0.675379149453578,-0.0001701707830906464
0.673379149453578,-0.00017013346008343253
0.671379149453578,-0.00017009613707621865
0.669379149453578,-0.00017012757155931014
0.667379149453578,-0.0001701596516497722
0.665379149453578,-0.00017019173174023428
0.663379149453578,-0.00017022381183069636
0.661379149453578,-0.00017025589192115842
0.659379149453578,-0.0001702879720116205
0.657379149453578,-0.00017032005210208259
0.655379149453578,-0.00017035213219254464
0.653379149453578,-0.00017038421228300673
0.651379149453578,-0.0001704162923734688
0.649379149453578,-0.00017044837246393086
0.647379149453578,-0.00017048045255439295
0.645379149453578,-0.00017051253264485503
0.643379149453578,-0.0001705446127353171
0.641379149453578,-0.00017057669282577917
0.639379149453578,-0.00017060877291624125
0.637379149453578,-0.0001706408530067033
0.635379149453578,-0.0001706729330971654
0.633379149453578,-0.00017070501318762748
0.631379149453578,-0.00017073709327808953
0.629379149453578,-0.00017076917336855162
0.627379149453578,-0.0001708012534590137
0.625379149453578,-0.00017083333354947575
0.623379149453578,-0.00017184646428576348
0.621379149453578,-0.00017298947983094366
0.619379149453578,-0.00017413249537612382
0.617379149453578,-0.000175275510921304
0.615379149453578,-0.0001764185264664842
0.613379149453578,-0.00017756154201166435
0.611379149453578,-0.00017870455755684454
0.609379149453578,-0.00017984757310202473
0.607379149453578,-0.00018099058864720491
0.605379149453578,-0.00018213360419238507
0.603379149453578,-0.00018327661973756526
0.601379149453578,-0.00018441963528274545
0.599379149453578,-0.0001855626508279256
0.597379149453578,-0.0001867056663731058
0.595379149453578,-0.00018784868191828598
0.593379149453578,-0.00018899169746346617
0.591379149453578,-0.00019013471300864633
0.5893791494535779,-0.0001912777285538265
0.5873791494535779,-0.0001924207440990067
0.5853791494535779,-0.00019356375964418686
0.5833791494535779,-0.00019470677518936705
0.5813791494535779,-0.00019584979073454723
0.579379149453578,-0.00019699280627972734
0.577379149453578,-0.00019742720374157742
0.575379149453578,-0.00019766751455516928
0.573379149453578,-0.00019790782536876114
0.571379149453578,-0.000198148136182353
0.569379149453578,-0.00019838844699594487
0.567379149453578,-0.00019862875780953673
0.565379149453578,-0.0001988690686231286
0.563379149453578,-0.00019910937943672045
0.561379149453578,-0.00019934969025031232
0.559379149453578,-0.00019959000106390418
0.557379149453578,-0.00019983031187749604
0.555379149453578,-0.0002000706226910879
0.553379149453578,-0.00020031093350467976
0.551379149453578,-0.00020055124431827163
0.549379149453578,-0.0002007915551318635
0.547379149453578,-0.00020103186594545535
0.545379149453578,-0.0002012721767590472
0.543379149453578,-0.00020151248757263907
0.541379149453578,-0.00020175279838623094
0.539379149453578,-0.0002019931091998228
0.537379149453578,-0.00020223342001341466
0.535379149453578,-0.00020247373082700652
0.533379149453578,-0.00020271404164059838
0.531379149453578,-0.00020342592571251318
0.529379149453578,-0.00020436057085658835
0.527379149453578,-0.00020529521600066351
0.525379149453578,-0.00020622986114473868
0.523379149453578,-0.00020716450628881385
0.521379149453578,-0.00020809915143288902
0.519379149453578,-0.00020903379657696418
0.517379149453578,-0.00020996844172103932
0.515379149453578,-0.0002109030868651145
0.513379149453578,-0.00021183773200918966
0.511379149453578,-0.00021277237715326482
0.509379149453578,-0.00021370702229734
0.507379149453578,-0.00021464166744141516
0.505379149453578,-0.00021557631258549033
0.503379149453578,-0.0002165109577295655
0.501379149453578,-0.00021744560287364066
0.499379149453578,-0.0002183802480177158
0.497379149453578,-0.00021931489316179097
0.49537914945357797,-0.00022024953830586613
0.49337914945357797,-0.0002211841834499413
0.49137914945357797,-0.00022211882859401647
0.48937914945357797,-0.00022305347373809164
0.48737914945357796,-0.0002239881188821668
0.48537914945357796,-0.00022468140651528979
0.48337914945357796,-0.00022519940864977153
0.48137914945357796,-0.0002257174107842533
0.47937914945357796,-0.00022623541291873507
0.47737914945357796,-0.00022675341505321684
0.47537914945357795,-0.00022727141718769858
0.47337914945357795,-0.00022778941932218036
0.47137914945357795,-0.00022830742145666213
0.46937914945357795,-0.0002288254235911439
0.46737914945357795,-0.00022934342572562567
0.465379149453578,-0.0002298614278601074
0.463379149453578,-0.00023037942999458918
0.461379149453578,-0.00023089743212907092
0.459379149453578,-0.0002314154342635527
0.457379149453578,-0.00023193343639803447
0.455379149453578,-0.00023245143853251624
0.453379149453578,-0.00023296944066699798
0.451379149453578,-0.00023348744280147975
0.449379149453578,-0.00023400544493596152
0.447379149453578,-0.0002345234470704433
0.445379149453578,-0.00023504144920492504
0.443379149453578,-0.0002355594513394068
0.441379149453578,-0.00023607745347388858
0.439379149453578,-0.00023679372135176622
0.437379149453578,-0.0002377283664958414
0.435379149453578,-0.00023866301163991656
0.43337914945357797,-0.00023959765678399173
0.43137914945357797,-0.00024053230192806687
0.42937914945357797,-0.00024146694707214203
0.42737914945357797,-0.0002424015922162172
0.42537914945357796,-0.00024333623736029237
0.42337914945357796,-0.00024427088250436753
0.42137914945357796,-0.0002452055276484427
0.41937914945357796,-0.00024614017279251787
0.41737914945357796,-0.00024707481793659304
0.41537914945357796,-0.0002480094630806682
0.41337914945357795,-0.00024894410822474337
0.41137914945357795,-0.00024987875336881854
0.40937914945357795,-0.0002508133985128937
0.40737914945357795,-0.00025174804365696887
0.40537914945357795,-0.00025268268880104404
0.403379149453578,-0.00025361733394511915
0.401379149453578,-0.0002545519790891943
0.399379149453578,-0.0002554866242332695
0.397379149453578,-0.00025642126937734465
0.395379149453578,-0.0002573559145214198
0.393379149453578,-0.00025816001419089115
0.391379149453578,-0.0002587474477955454
0.389379149453578,-0.0002593348814001997
0.387379149453578,-0.0002599223150048539
0.385379149453578,-0.0002605097486095082
0.383379149453578,-0.0002610971822141624
0.381379149453578,-0.00026168461581881666
0.379379149453578,-0.00026227204942347093
0.377379149453578,-0.00026285948302812515
0.375379149453578,-0.0002634469166327794
0.373379149453578,-0.00026403435023743363
0.371379149453578,-0.0002646217838420879
0.36937914945357797,-0.0002652092174467422
0.36737914945357797,-0.0002657966510513964
0.36537914945357797,-0.00026638408465605066
0.36337914945357797,-0.0002669715182607049
0.36137914945357796,-0.00026755895186535915
0.35937914945357796,-0.0002681463854700134
0.35737914945357796,-0.00026873381907466763
0.35537914945357796,-0.0002693212526793219
0.35337914945357796,-0.0002699086862839761
0.35137914945357795,-0.0002704961198886304
0.34937914945357795,-0.00027108355349328466
0.34737914945357795,-0.0002718986384661712
0.34537914945357795,-0.0002733195307095738
0.34337914945357795,-0.0002747404229529764
0.34137914945357795,-0.000276161315196379
0.33937914945357794,-0.00027758220743978157
0.337379149453578,-0.0002790030996831841
0.335379149453578,-0.0002804239919265867
0.333379149453578,-0.0002818448841699893
0.331379149453578,-0.0002832657764133919
0.329379149453578,-0.00028468666865679446
0.327379149453578,-0.0002861075609001971
0.325379149453578,-0.00028752845314359963
0.323379149453578,-0.00028894934538700224
0.321379149453578,-0.0002903702376304048
0.319379149453578,-0.0002917911298738074
0.317379149453578,-0.00029321202211720997
0.315379149453578,-0.0002946329143606126
0.313379149453578,-0.00029605380660401514
0.311379149453578,-0.00029747469884741775
0.309379149453578,-0.00029889559109082036
0.30737914945357797,-0.0003003164833342229
0.30537914945357797,-0.00030173737557762553
0.30337914945357797,-0.0003031582678210281
0.30137914945357797,-0.0003044436029793109
0.29937914945357796,-0.000305100471555249
0.29737914945357796,-0.00030575734013118703
0.29537914945357796,-0.00030641420870712507
0.29337914945357796,-0.0003070710772830631
0.29137914945357796,-0.0003077279458590012
0.28937914945357796,-0.00030838481443493923
0.28737914945357795,-0.00030904168301087726
0.28537914945357795,-0.00030969855158681535
0.28337914945357795,-0.0003103554201627534
0.28137914945357795,-0.0003110122887386914
0.27937914945357795,-0.00031166915731462946
0.27737914945357794,-0.00031232602589056755
0.275379149453578,-0.0003129828944665056
0.273379149453578,-0.0003136397630424436
0.271379149453578,-0.00031429663161838166
0.269379149453578,-0.00031495350019431975
0.267379149453578,-0.0003156103687702578
0.265379149453578,-0.0003162672373461958
0.263379149453578,-0.00031692410592213386
0.261379149453578,-0.00031758097449807195
0.259379149453578,-0.00031823784307401
0.257379149453578,-0.000318894711649948
0.255379149453578,-0.0003195829015309293
0.253379149453578,-0.00032065645729469625
0.251379149453578,-0.00032173001305846316
0.24937914945357798,-0.0003228035688222301
0.24737914945357797,-0.00032387712458599704
0.24537914945357797,-0.00032495068034976395
0.24337914945357797,-0.0003260242361135309
0.24137914945357797,-0.0003270977918772978
0.23937914945357797,-0.0003281713476410648
0.23737914945357796,-0.0003292449034048317
0.23537914945357796,-0.00033031845916859867
0.23337914945357796,-0.0003313920149323656
0.23137914945357796,-0.0003324655706961325
0.22937914945357796,-0.00033353912645989946
0.22737914945357796,-0.00033461268222366637
0.22537914945357795,-0.00033568623798743333
0.22337914945357795,-0.00033675979375120024
0.22137914945357795,-0.0003378333495149672
0.21937914945357795,-0.0003389069052787341
0.21737914945357795,-0.00033998046104250103
0.21537914945357794,-0.000341054016806268
0.21337914945357794,-0.0003421275725700349
0.21137914945357794,-0.0003432011283338019
0.20937914945357794,-0.0003442746840975688
0.20737914945357794,-0.00034568741129626247
0.20537914945357794,-0.0003471083035396651
0.20337914945357793,-0.0003485291957830677
0.20137914945357793,-0.00034995008802647025
0.19937914945357793,-0.00035137098026987286
0.19737914945357793,-0.0003527918725132754
0.19537914945357793,-0.00035421276475667803
0.19337914945357793,-0.0003556336570000806
0.19137914945357792,-0.0003570545492434832
0.18937914945357792,-0.0003584754414868858
0.18737914945357792,-0.00035989633373028837
0.18537914945357792,-0.000361317225973691
0.18337914945357792,-0.00036273811821709354
0.18137914945357791,-0.00036415901046049615
0.1793791494535779,-0.00036557990270389876
0.17737914945357802,-0.00036700079494730127
0.17537914945357802,-0.0003684216871907038
0.17337914945357802,-0.00036984257943410644
0.17137914945357802,-0.000371263471677509
0.16937914945357802,-0.0003726843639209116
0.167379149453578,-0.0003741052561643142
0.165379149453578,-0.0003755261484077168
0.163379149453578,-0.0003769470406511194
0.161379149453578,-0.0003783679339496365
0.159379149453578,-0.0003797888273909751
0.157379149453578,-0.0003812097208323137
0.155379149453578,-0.00038263061427365225
0.153379149453578,-0.0003840515077149908
0.151379149453578,-0.0003854724011563294
0.149379149453578,-0.00038689329459766795
0.147379149453578,-0.0003883141880390065
0.145379149453578,-0.00038973508148034514
0.143379149453578,-0.0003911559749216837
0.141379149453578,-0.0003925768683630223
0.139379149453578,-0.00039399776180436085
0.137379149453578,-0.0003954186552456994
0.13537914945357798,-0.000396839548687038
0.13337914945357798,-0.0003982604421283766
0.13137914945357798,-0.0003996813355697152
0.12937914945357798,-0.00040110222901105374
0.12737914945357798,-0.0004025231224523923
0.12537914945357798,-0.0004039440158937309
0.12337914945357797,-0.00040536490933506945
0.12137914945357797,-0.000406785802776408
0.11937914945357797,-0.00040820669621774664
0.11737914945357797,-0.0004096275896590852
0.11537914945357797,-0.00041121212898604493
0.11337914945357797,-0.0004128414669560341
0.11137914945357796,-0.00041447080492602336
0.10937914945357796,-0.00041610014289601255
0.10737914945357796,-0.0004177294808660018
0.10537914945357796,-0.000419358818835991
0.10337914945357796,-0.0004209881568059802
0.10137914945357795,-0.0004226174947759694
0.09937914945357795,-0.00042424683274595865
0.09737914945357795,-0.00042587617071594783
0.09537914945357795,-0.0004275055086859371
0.09337914945357795,-0.00042913484665592626
0.09137914945357795,-0.0004307641846259155
0.08937914945357794,-0.0004323935225959047
0.08737914945357794,-0.00043402286056589394
0.08537914945357794,-0.0004356521985358831
0.08337914945357794,-0.00043728153650587237
0.08137914945357794,-0.00043891087447586155
0.07937914945357794,-0.0004405402124458508
0.07737914945357793,-0.00044216955041584
0.07537914945357793,-0.0004437988883858292
0.07337914945357793,-0.0004454282263558184
0.07137914945357793,-0.00044705756432580765
0.06937914945357793,-0.00044868690229579684
0.06737914945357792,-0.0004503162402657861
0.06537914945357792,-0.00045194557823577527
0.06337914945357792,-0.0004535749162057645
0.06137914945357792,-0.0004552042541757537
0.05937914945357792,-0.00045683359214574294
0.057379149453577916,-0.00045846293011573213
0.055379149453577914,-0.00046009226808572137
0.05337914945357791,-0.0004617216060557106
0.05137914945357802,-0.0004633509440256997
0.04937914945357802,-0.00046498028199568894
0.04737914945357802,-0.0004666096199656782
0.045379149453578016,-0.00046823895793566737
0.043379149453578014,-0.0004698682959056566
0.04137914945357801,-0.0004714976338756458
0.03937914945357801,-0.00047312697184563504
0.03737914945357801,-0.0004747563098156242
0.03537914945357801,-0.00047638564778561347
0.033379149453578005,-0.00047801498575560265
0.031379149453578004,-0.0004796443237255919
0.029379149453578002,-0.0004812736616955811
0.027379149453578,-0.0004829029996655703
0.025379149453577998,-0.0004845323376355595
0.023379149453577996,-0.0004863276926607134
0.021379149453577995,-0.0004882350074929927
0.019379149453577993,-0.0004901423223252721
0.01737914945357799,-0.0004920496371575514
0.01537914945357799,-0.0004939569519898308
0.013379149453577988,-0.00049586426682211
0.011379149453577986,-0.0004977715816543894
0.009379149453577984,-0.0004996788964866688
0.007379149453577982,-0.0005015862113189481
0.0053791494535779805,-0.0005034935261512274
0.0033791494535779787,-0.0005054008409835068
0.001379149453577977,-0.0005073081558157861
-0.0006208505464220249,-0.0005092154706480655
-0.0026208505464220266,-0.0005111227854803448
-0.004620850546422028,-0.0005130301003126241
-0.00662085054642203,-0.0005149374151449035
-0.008620850546422032,-0.0005168447299771828
-0.010620850546422034,-0.0005187520448094622
-0.012620850546422036,-0.0005206593596417414
-0.014620850546422037,-0.0005225666744740208
-0.01662085054642204,-0.0005244739893063002
-0.01862085054642204,-0.0005263813041385795
-0.020620850546422043,-0.0005282886189708589
-0.022620850546422044,-0.000530125645829708
-0.024620850546422046,-0.0005318939650870362
-0.026620850546422048,-0.0005336622843443644
-0.02862085054642205,-0.0005354306036016927
-0.03062085054642205,-0.0005371989228590209
-0.03262085054642205,-0.0005389672421163491
-0.034620850546422055,-0.0005407355613736772
-0.03662085054642206,-0.0005425038806310055
-0.03862085054642206,-0.0005442721998883337
-0.04062085054642206,-0.0005460405191456619
-0.04262085054642206,-0.0005478088384029902
-0.044620850546422064,-0.0005495771576603184
-0.046620850546422066,-0.0005513454769176466
-0.04862085054642207,-0.0005531137961749748
-0.05062085054642207,-0.000554882115432303
-0.05262085054642207,-0.0005566504346896312
-0.05462085054642207,-0.0005584187539469594
-0.056620850546422075,-0.0005601870732042877
-0.058620850546422076,-0.0005619553924616159
-0.06062085054642208,-0.0005637237117189441
-0.06262085054642208,-0.0005654920309762723
-0.06462085054642208,-0.0005672603502336006
-0.06662085054642208,-0.0005690286694909287
-0.06862085054642209,-0.0005711127516141666
-0.07062085054642209,-0.0005736457246407727
-0.07262085054642209,-0.000576178697667379
-0.07462085054642209,-0.0005787116706939852
-0.07662085054642209,-0.0005812446437205914
-0.07862085054642198,-0.0005837776167471975
-0.08062085054642198,-0.0005863105897738038
-0.08262085054642199,-0.00058884356280041
-0.08462085054642199,-0.0005913765358270162
-0.08662085054642199,-0.0005939095088536225
-0.08862085054642199,-0.0005964424818802287
-0.090620850546422,-0.0005989754549068349
-0.092620850546422,-0.0006015084279334412
-0.094620850546422,-0.0006040414009600474
-0.096620850546422,-0.0006065743739866536
-0.098620850546422,-0.0006091073470132598
-0.100620850546422,-0.0006116403200398661
-0.102620850546422,-0.0006141732930664723
-0.104620850546422,-0.0006167062660930785
-0.10662085054642201,-0.0006192392391196848
-0.10862085054642201,-0.000621772212146291
-0.11062085054642201,-0.0006243051851728972
-0.11262085054642201,-0.0006268381581995035
-0.11462085054642202,-0.0006293256926530008
-0.11662085054642202,-0.0006317196056688306
-0.11862085054642202,-0.0006341135186846605
-0.12062085054642202,-0.0006365074317004904
-0.12262085054642202,-0.0006389013447163203
-0.12462085054642202,-0.00064129525773215
-0.12662085054642203,-0.0006436891707479799
-0.12862085054642203,-0.0006460830837638098
-0.13062085054642203,-0.0006484769967796396
-0.13262085054642203,-0.0006508709097954694
-0.13462085054642203,-0.0006532648228112993
-0.13662085054642203,-0.0006556587358271291
-0.13862085054642204,-0.000658052648842959
-0.14062085054642204,-0.0006604465618587888
-0.14262085054642204,-0.0006628404748746186
-0.14462085054642204,-0.0006652343878904485
-0.14662085054642204,-0.0006676283009062784
-0.14862085054642205,-0.0006700222139221083
-0.15062085054642205,-0.000672416126937938
-0.15262085054642205,-0.0006748100399537679
-0.15462085054642205,-0.0006772039529695978
-0.15662085054642205,-0.0006795978659854276
-0.15862085054642205,-0.0006819917790012574
-0.16062085054642206,-0.0006844689169848149
-0.16262085054642206,-0.0006872105080054374
-0.16462085054642206,-0.0006899520990260598
-0.16662085054642206,-0.0006926936900466822
-0.16862085054642206,-0.0006954352810673047
-0.17062085054642206,-0.0006981768720879272
-0.17262085054642207,-0.0007009184631085496
-0.17462085054642207,-0.000703660054129172
-0.17662085054642207,-0.0007064016451497944
